Exit Velocity (MPH),Hits,BBE,"Average
Distance (ft)",AVG,wOBA,1B,2B,3B,HR,1B %,2B %,3B %,HR %
122,1,1,449,1,2,0,0,0,1,0,0,0,100
121,1,2,279,0.5,0.45,1,0,0,0,50,0,0,0
120,3,3,198,1,0.9,3,0,0,0,100,0,0,0
119,4,5,153,0.8,0.94,3,0,0,1,60,0,0,20
118,5,7,202,0.714,1.057,1,2,0,2,14.3,28.6,0,28.6
117,22,28,250,0.786,1.255,6,3,0,13,21.4,10.7,0,46.4
116,35,45,223,0.778,0.982,18,8,0,9,40,17.8,0,20
115,48,66,190,0.727,0.933,27,7,1,13,40.9,10.6,1.5,19.7
114,90,112,242,0.804,1.119,35,20,3,32,31.3,17.9,2.7,28.6
113,143,186,238,0.769,1.042,54,45,2,42,29,24.2,1.1,22.6
112,254,335,239,0.758,1.056,101,60,4,89,30.1,17.9,1.2,26.6
111,348,451,235,0.772,1.041,144,91,6,107,31.9,20.2,1.3,23.7
110,525,724,232,0.725,1.002,216,119,14,176,29.8,16.4,1.9,24.3
109,742,"1,058",224,0.701,0.974,287,195,8,252,27.1,18.4,0.8,23.8
108,956,"1,328",228,0.72,0.988,403,218,11,324,30.3,16.4,0.8,24.4
107,"1,254","1,747",224,0.718,0.954,572,290,19,373,32.7,16.6,1.1,21.4
106,"1,425","2,107",217,0.676,0.913,623,326,37,439,29.6,15.5,1.8,20.8
105,"1,624","2,520",225,0.644,0.86,721,389,34,480,28.6,15.4,1.3,19
104,"1,847","2,916",220,0.633,0.845,820,445,43,539,28.1,15.3,1.5,18.5
103,"1,961","3,251",223,0.603,0.793,883,508,49,521,27.2,15.6,1.5,16
102,"1,907","3,481",217,0.548,0.71,897,479,66,465,25.8,13.8,1.9,13.4
101,"1,903","3,707",210,0.513,0.646,968,477,64,394,26.1,12.9,1.7,10.6
100,"1,852","3,893",210,0.476,0.59,967,467,60,358,24.8,12,1.5,9.2
99,"1,638","3,762",209,0.435,0.532,887,417,46,288,23.6,11.1,1.2,7.7
98,"1,488","3,863",205,0.385,0.454,870,385,49,184,22.5,10,1.3,4.8
97,"1,417","3,889",201,0.364,0.42,889,331,34,163,22.9,8.5,0.9,4.2
96,"1,298","3,767",199,0.345,0.395,799,327,48,124,21.2,8.7,1.3,3.3
95,"1,156","3,789",199,0.305,0.345,766,261,26,103,20.2,6.9,0.7,2.7
94,"1,043","3,631",194,0.287,0.312,728,227,32,56,20,6.3,0.9,1.5
93,"1,002","3,552",191,0.282,0.302,709,235,26,32,20,6.6,0.7,0.9
92,879,"3,373",183,0.261,0.273,678,158,18,25,20.1,4.7,0.5,0.7
91,834,"3,280",186,0.254,0.264,654,146,18,16,19.9,4.5,0.5,0.5
90,789,"3,178",181,0.248,0.26,595,165,19,10,18.7,5.2,0.6,0.3
89,719,"3,014",179,0.239,0.248,557,137,22,3,18.5,4.5,0.7,0.1
88,697,"2,924",176,0.238,0.246,554,131,12,0,18.9,4.5,0.4,0
87,609,"2,791",173,0.218,0.222,496,104,9,0,17.8,3.7,0.3,0
86,570,"2,645",164,0.216,0.218,463,98,9,0,17.5,3.7,0.3,0
85,556,"2,501",159,0.222,0.223,470,78,8,0,18.8,3.1,0.3,0
84,485,"2,402",157,0.202,0.207,402,80,3,0,16.7,3.3,0.1,0
83,488,"2,236",153,0.218,0.22,417,67,4,0,18.6,3,0.2,0
82,465,"2,247",146,0.207,0.211,392,69,4,0,17.4,3.1,0.2,0
81,463,"2,179",144,0.212,0.215,394,63,5,1,18.1,2.9,0.2,0
80,469,"2,039",140,0.23,0.232,403,61,5,0,19.8,3,0.2,0
79,415,"1,976",137,0.21,0.213,359,51,5,0,18.2,2.6,0.3,0
78,437,"1,886",133,0.232,0.238,372,61,4,0,19.7,3.2,0.2,0
77,426,"1,869",126,0.228,0.233,371,52,3,0,19.9,2.8,0.2,0
76,428,"1,785",119,0.24,0.24,380,46,2,0,21.3,2.6,0.1,0
75,390,"1,609",115,0.242,0.25,338,48,4,0,21,3,0.2,0
74,379,"1,552",112,0.244,0.238,348,31,0,0,22.4,2,0,0
73,383,"1,553",109,0.247,0.244,350,32,1,0,22.5,2.1,0.1,0
72,393,"1,422",104,0.276,0.28,351,39,3,0,24.7,2.7,0.2,0
71,378,"1,289",104,0.293,0.29,341,35,2,0,26.5,2.7,0.2,0
70,330,"1,223",93,0.27,0.262,304,26,0,0,24.9,2.1,0,0
69,316,"1,131",92,0.279,0.275,296,20,0,0,26.2,1.8,0,0
68,250,"1,007",81,0.248,0.246,232,18,0,0,23,1.8,0,0
67,241,906,85,0.266,0.263,223,17,1,0,24.6,1.9,0.1,0
66,185,820,80,0.226,0.227,168,17,0,0,20.5,2.1,0,0
65,178,739,75,0.241,0.234,168,10,0,0,22.7,1.4,0,0
64,141,745,69,0.189,0.202,126,15,0,0,16.9,2,0,0
63,107,602,66,0.178,0.184,101,6,0,0,16.8,1,0,0
62,96,542,68,0.177,0.199,82,13,1,0,15.1,2.4,0.2,0
61,88,526,62,0.167,0.165,84,4,0,0,16,0.8,0,0
60,69,453,61,0.152,0.158,62,7,0,0,13.7,1.5,0,0
59,52,422,59,0.123,0.134,45,7,0,0,10.7,1.7,0,0
58,55,364,59,0.151,0.148,50,5,0,0,13.7,1.4,0,0
57,39,321,56,0.121,0.135,36,3,0,0,11.2,0.9,0,0
56,31,286,53,0.108,0.138,26,5,0,0,9.1,1.7,0,0
55,27,275,45,0.098,0.126,26,1,0,0,9.5,0.4,0,0
54,24,225,46,0.107,0.125,21,3,0,0,9.3,1.3,0,0
53,27,211,43,0.128,0.13,26,1,0,0,12.3,0.5,0,0
52,20,216,45,0.093,0.121,20,0,0,0,9.3,0,0,0
51,22,163,39,0.135,0.166,22,0,0,0,13.5,0,0,0
50,15,133,43,0.113,0.115,15,0,0,0,11.3,0,0,0
49,13,136,38,0.096,0.119,13,0,0,0,9.6,0,0,0
48,12,129,46,0.093,0.119,12,0,0,0,9.3,0,0,0
47,10,99,47,0.101,0.109,10,0,0,0,10.1,0,0,0
46,11,81,49,0.136,0.167,11,0,0,0,13.6,0,0,0
45,15,83,43,0.181,0.221,14,1,0,0,16.9,1.2,0,0
44,3,47,51,0.064,0.096,3,0,0,0,6.4,0,0,0
43,4,38,43,0.105,0.118,4,0,0,0,10.5,0,0,0
42,7,36,43,0.194,0.175,7,0,0,0,19.4,0,0,0
41,6,33,39,0.182,0.164,6,0,0,0,18.2,0,0,0
40,5,27,40,0.185,0.2,5,0,0,0,18.5,0,0,0
39,4,14,23,0.286,0.257,4,0,0,0,28.6,0,0,0
38,2,15,47,0.133,0.12,2,0,0,0,13.3,0,0,0
37,2,13,19,0.154,0.208,2,0,0,0,15.4,0,0,0
36,5,16,35,0.313,0.281,5,0,0,0,31.3,0,0,0
35,7,16,35,0.438,0.394,7,0,0,0,43.8,0,0,0
34,2,12,31,0.167,0.225,2,0,0,0,16.7,0,0,0
33,3,5,33,0.6,0.54,3,0,0,0,60,0,0,0
32,1,5,50,0.2,0.18,1,0,0,0,20,0,0,0
31,0,8,37,0,0,0,0,0,0,0,0,0,0
30,1,7,49,0.143,0.129,1,0,0,0,14.3,0,0,0
29,2,5,48,0.4,0.36,2,0,0,0,40,0,0,0
28,1,2,55,0.5,0.45,1,0,0,0,50,0,0,0
27,0,1,46,0,0,0,0,0,0,0,0,0,0
26,1,2,35,0.5,0.45,1,0,0,0,50,0,0,0
25,0,1,41,0,0,0,0,0,0,0,0,0,0
24,1,2,36,0.5,0.45,1,0,0,0,50,0,0,0
23,0,2,24,0,0.45,0,0,0,0,0,0,0,0
22,0,1,34,0,0,0,0,0,0,0,0,0,0
21,1,3,33,0.333,0.6,1,0,0,0,33.3,0,0,0
18,1,2,27,0.5,0.45,1,0,0,0,50,0,0,0